Time,Displacement,Force
(s),(mm),(N)
0.00000,0.00000,1.09490
0.02000,0.00000,1.09860
0.04000,0.00000,1.09600
0.06000,0.00000,1.07250
0.08000,0.00000,1.08390
0.10000,0.00020,1.08790
0.12000,0.00040,1.09850
0.14000,0.00060,1.09520
0.16000,0.00120,1.22400
0.18000,0.00210,1.60170
0.20000,0.00330,2.21480
0.22000,0.00480,3.03570
0.24000,0.00640,4.08140
0.26000,0.00780,5.14230
0.28000,0.00890,6.10120
0.30000,0.00970,6.88700
0.32000,0.01050,7.48030
0.34000,0.01120,8.01570
0.36000,0.01190,8.49410
0.38000,0.01260,8.90740
0.40000,0.01320,9.28250
0.42000,0.01370,9.63490
0.44000,0.01440,9.99030
0.46000,0.01510,10.31720
0.48000,0.01570,10.68240
0.50000,0.01640,11.12720
0.52000,0.01710,11.59380
0.54000,0.01770,12.00050
0.56000,0.01840,12.40670
0.58000,0.01910,12.79110
0.60000,0.01970,13.11200
0.62000,0.02030,13.44940
0.64000,0.02100,13.83370
0.66000,0.02180,14.28190
0.68000,0.02270,14.80800
0.70000,0.02340,15.29380
0.72000,0.02410,15.72360
0.74000,0.02470,16.13780
0.76000,0.02530,16.51640
0.78000,0.02600,16.91200
0.80000,0.02670,17.34780
0.82000,0.02740,17.80510
0.84000,0.02810,18.21530
0.86000,0.02880,18.66090
0.88000,0.02950,19.14350
0.90000,0.03010,19.60060
0.92000,0.03070,20.01250
0.94000,0.03140,20.37170
0.96000,0.03200,20.71910
0.98000,0.03260,21.11000
1.00000,0.03330,21.53690
1.02000,0.03390,21.99490
1.04000,0.03460,22.44000
1.06000,0.03530,22.87860
1.08000,0.03590,23.28220
1.10000,0.03650,23.69160
1.12000,0.03720,24.08290
1.14000,0.03790,24.53510
1.16000,0.03860,25.01240
1.18000,0.03930,25.47850
1.20000,0.04000,25.95470
1.22000,0.04070,26.41860
1.24000,0.04140,26.90270
1.26000,0.04200,27.36780
1.28000,0.04260,27.77530
1.30000,0.04320,28.17410
1.32000,0.04390,28.56800
1.34000,0.04460,29.02310
1.36000,0.04550,29.54840
1.38000,0.04620,30.06440
1.40000,0.04670,30.51400
1.42000,0.04720,30.91040
1.44000,0.04780,31.25210
1.46000,0.04850,31.59380
1.48000,0.04920,32.01910
1.50000,0.05010,32.53380
1.52000,0.05080,33.07150
1.54000,0.05150,33.59790
1.56000,0.05210,34.06580
1.58000,0.05280,34.48940
1.60000,0.05340,34.90680
1.62000,0.05410,35.31830
1.64000,0.05470,35.71250
1.66000,0.05540,36.11420
1.68000,0.05600,36.49850
1.70000,0.05670,36.92180
1.72000,0.05740,37.38320
1.74000,0.05800,37.75500
1.76000,0.05860,38.12740
1.78000,0.05910,38.46190
1.80000,0.05990,38.80490
1.82000,0.06060,39.26230
1.84000,0.06130,39.75840
1.86000,0.06190,40.19530
1.88000,0.06260,40.64830
1.90000,0.06330,41.07820
1.92000,0.06400,41.50570
1.94000,0.06460,41.93360
1.96000,0.06520,42.34530
1.98000,0.06580,42.77070
2.00000,0.06650,43.16460
2.02000,0.06720,43.57220
2.04000,0.06790,44.02780
2.06000,0.06870,44.55180
2.08000,0.06930,45.09030
2.10000,0.06980,45.54280
2.12000,0.07050,45.90790
2.14000,0.07120,46.26530
2.16000,0.07190,46.70180
2.18000,0.07260,47.21720
2.20000,0.07340,47.75600
2.22000,0.07400,48.28590
2.24000,0.07460,48.74390
2.26000,0.07530,49.13450
2.28000,0.07590,49.54020
2.30000,0.07660,49.96300
2.32000,0.07720,50.40640
2.34000,0.07790,50.85680
2.36000,0.07850,51.26700
2.38000,0.07920,51.67280
2.40000,0.07980,52.08730
2.42000,0.08050,52.49790
2.44000,0.08110,52.92040
2.46000,0.08180,53.31730
2.48000,0.08250,53.75390
2.50000,0.08320,54.25370
2.52000,0.08390,54.73270
2.54000,0.08450,55.17790
2.56000,0.08520,55.59840
2.58000,0.08580,56.01960
2.60000,0.08650,56.42380
2.62000,0.08710,56.82900
2.64000,0.08770,57.23030
2.66000,0.08830,57.60970
2.68000,0.08900,58.01030
2.70000,0.08970,58.45840
2.72000,0.09050,58.93870
2.74000,0.09130,59.43910
2.76000,0.09180,59.93780
2.78000,0.09240,60.36240
2.80000,0.09310,60.72830
2.82000,0.09390,61.13960
2.84000,0.09460,61.60450
2.86000,0.09530,62.09280
2.88000,0.09600,62.56670
2.90000,0.09670,63.04340
2.92000,0.09730,63.49770
2.94000,0.09800,63.89860
2.96000,0.09870,64.28890
2.98000,0.09930,64.71470
3.00000,0.10000,65.13070
3.02000,0.10070,65.56120
3.04000,0.10130,66.00980
3.06000,0.10200,66.45620
3.08000,0.10270,66.90660
3.10000,0.10330,67.31380
3.12000,0.10390,67.70830
3.14000,0.10460,68.10430
3.16000,0.10530,68.55640
3.18000,0.10590,68.99840
3.20000,0.10650,69.42770
3.22000,0.10720,69.84330
3.24000,0.10790,70.24970
3.26000,0.10850,70.65010
3.28000,0.10920,71.09810
3.30000,0.10980,71.50280
3.32000,0.11040,71.87870
3.34000,0.11100,72.24530
3.36000,0.11180,72.65730
3.38000,0.11260,73.13260
3.40000,0.11330,73.64760
3.42000,0.11400,74.17790
3.44000,0.11460,74.64070
3.46000,0.11520,75.01770
3.48000,0.11590,75.37270
3.50000,0.11660,75.78430
3.52000,0.11730,76.24230
3.54000,0.11820,76.73940
3.56000,0.11880,77.21800
3.58000,0.11940,77.65700
3.60000,0.11990,78.06340
3.62000,0.12070,78.43410
3.64000,0.12120,78.79570
3.66000,0.12200,79.18350
3.68000,0.12270,79.62030
3.70000,0.12320,80.06980
3.72000,0.12400,80.51030
3.74000,0.12470,80.93740
3.76000,0.12530,81.34850
3.78000,0.12580,81.75620
3.80000,0.12640,82.13680
3.82000,0.12710,82.53300
3.84000,0.12800,82.93850
3.86000,0.12860,83.37750
3.88000,0.12930,83.80570
3.90000,0.12990,84.22090
3.92000,0.13060,84.59890
3.94000,0.13120,84.99610
3.96000,0.13170,85.39620
3.98000,0.13230,85.81640
4.00000,0.13290,86.20270
4.02000,0.13360,86.56240
4.04000,0.13430,86.95650
4.06000,0.13520,87.43640
4.08000,0.13590,87.92450
4.10000,0.13660,88.42110
4.12000,0.13720,88.87670
4.14000,0.13780,89.24250
4.16000,0.13850,89.58240
4.18000,0.13930,90.02900
4.20000,0.14000,90.52180
4.22000,0.14080,91.04890
4.24000,0.14150,91.54580
4.26000,0.14230,91.98760
4.28000,0.14280,92.41440
4.30000,0.14340,92.80450
4.32000,0.14400,93.18040
4.34000,0.14470,93.57900
4.36000,0.14540,93.99280
4.38000,0.14600,94.40360
4.40000,0.14670,94.78750
4.42000,0.14730,95.17530
4.44000,0.14790,95.56240
4.46000,0.14860,95.96220
4.48000,0.14930,96.39410
4.50000,0.15000,96.85550
4.52000,0.15060,97.32080
4.54000,0.15120,97.71910
4.56000,0.15190,98.09990
4.58000,0.15260,98.44830
4.60000,0.15320,98.85520
4.62000,0.15390,99.32780
4.64000,0.15440,99.76130
4.66000,0.15500,100.09500
4.68000,0.15570,100.39650
4.70000,0.15640,100.76350
4.72000,0.15720,101.23180
4.74000,0.15800,101.75210
4.76000,0.15870,102.28590
4.78000,0.15930,102.74620
4.80000,0.15980,103.12060
4.82000,0.16060,103.45660
4.84000,0.16130,103.84180
4.86000,0.16200,104.27680
4.88000,0.16280,104.75400
4.90000,0.16350,105.21580
4.92000,0.16420,105.67520
4.94000,0.16480,106.14270
4.96000,0.16540,106.56340
4.98000,0.16600,106.95040
5.00000,0.16670,107.28190
5.02000,0.16740,107.63660
5.04000,0.16800,108.04730
5.06000,0.16870,108.50320
5.08000,0.16940,108.98040
5.10000,0.17010,109.39540
5.12000,0.17070,109.77300
5.14000,0.17140,110.17170
5.16000,0.17210,110.58380
5.18000,0.17270,111.02960
5.20000,0.17330,111.46420
5.22000,0.17400,111.83970
5.24000,0.17470,112.21240
5.26000,0.17530,112.63110
5.28000,0.17600,113.05820
5.30000,0.17660,113.47690
5.32000,0.17720,113.86460
5.34000,0.17770,114.17780
5.36000,0.17840,114.46090
5.38000,0.17910,114.82000
5.40000,0.17980,115.24530
5.42000,0.18050,115.74570
5.44000,0.18120,116.23410
5.46000,0.18180,116.64300
5.48000,0.18240,117.00560
5.50000,0.18300,117.34600
5.52000,0.18370,117.69460
5.54000,0.18450,118.12680
5.56000,0.18520,118.63670
5.58000,0.18590,119.12720
5.60000,0.18660,119.57030
5.62000,0.18740,120.02770
5.64000,0.18790,120.44540
5.66000,0.18870,120.85690
5.68000,0.18940,121.25150
5.70000,0.19000,121.64610
5.72000,0.19070,122.04040
5.74000,0.19120,122.45520
5.76000,0.19200,122.85370
5.78000,0.19250,123.25910
5.80000,0.19310,123.66780
5.82000,0.19380,124.05050
5.84000,0.19440,124.40750
5.86000,0.19510,124.80540
5.88000,0.19590,125.20370
5.90000,0.19640,125.59280
5.92000,0.19720,125.99090
5.94000,0.19790,126.40720
5.96000,0.19860,126.85640
5.98000,0.19920,127.27420
6.00000,0.19970,127.63410
6.02000,0.20030,127.99490
6.04000,0.20100,128.38400
6.06000,0.20180,128.79290
6.08000,0.20260,129.22820
6.10000,0.20330,129.68050
6.12000,0.20390,130.11090
6.14000,0.20460,130.57060
6.16000,0.20510,130.94950
6.18000,0.20580,131.28400
6.20000,0.20650,131.61890
6.22000,0.20720,132.06660
6.24000,0.20800,132.55940
6.26000,0.20860,133.03810
6.28000,0.20930,133.47210
6.30000,0.20990,133.83220
6.32000,0.21060,134.19960
6.34000,0.21120,134.60050
6.36000,0.21190,135.01250
6.38000,0.21260,135.39100
6.40000,0.21320,135.78660
6.42000,0.21390,136.21770
6.44000,0.21450,136.61850
6.46000,0.21510,136.99120
6.48000,0.21570,137.35190
6.50000,0.21630,137.69540
6.52000,0.21700,138.04180
6.54000,0.21780,138.44540
6.56000,0.21850,138.92100
6.58000,0.21920,139.39400
6.60000,0.21990,139.85340
6.62000,0.22060,140.26680
6.64000,0.22120,140.67970
6.66000,0.22190,141.07110
6.68000,0.22240,141.42410
6.70000,0.22300,141.74910
6.72000,0.22370,142.07460
6.74000,0.22440,142.46090
6.76000,0.22520,142.91910
6.78000,0.22600,143.41400
6.80000,0.22670,143.86560
6.82000,0.22710,144.27430
6.84000,0.22780,144.59930
6.86000,0.22840,144.92860
6.88000,0.22930,145.33770
6.90000,0.23010,145.83250
6.92000,0.23090,146.33520
6.94000,0.23160,146.81960
6.96000,0.23230,147.29090
6.98000,0.23290,147.72300
7.00000,0.23350,148.12090
7.02000,0.23410,148.48030
7.04000,0.23470,148.77180
7.06000,0.23540,149.07880
7.08000,0.23600,149.46320
7.10000,0.23660,149.88450
7.12000,0.23730,150.26820
7.14000,0.23790,150.66720
7.16000,0.23850,151.00520
7.18000,0.23920,151.33420
7.20000,0.23990,151.75130
7.22000,0.24060,152.19870
7.24000,0.24120,152.63410
7.26000,0.24190,153.02520
7.28000,0.24250,153.39020
7.30000,0.24320,153.80600
7.32000,0.24380,154.23900
7.34000,0.24450,154.62860
7.36000,0.24510,154.97500
7.38000,0.24580,155.30180
7.40000,0.24650,155.66160
7.42000,0.24720,156.08320
7.44000,0.24800,156.57340
7.46000,0.24870,157.09840
7.48000,0.24930,157.54990
7.50000,0.24980,157.87600
7.52000,0.25040,158.12220
7.54000,0.25110,158.42890
7.56000,0.25180,158.84740
7.58000,0.25260,159.33930
7.60000,0.25350,159.84300
7.62000,0.25420,160.30600
7.64000,0.25480,160.71160
7.66000,0.25540,161.09200
7.68000,0.25590,161.47350
7.70000,0.25670,161.82980
7.72000,0.25740,162.18540
7.74000,0.25810,162.59560
7.76000,0.25880,163.02930
7.78000,0.25940,163.42430
7.80000,0.26010,163.81430
7.82000,0.26050,164.20680
7.84000,0.26110,164.56370
7.86000,0.26180,164.86370
7.88000,0.26260,165.21010
7.90000,0.26330,165.63950
7.92000,0.26400,166.09440
7.94000,0.26470,166.50480
7.96000,0.26540,166.90840
7.98000,0.26600,167.32870
8.00000,0.26670,167.71910
8.02000,0.26720,168.08360
8.04000,0.26790,168.43880
8.06000,0.26850,168.78030
8.08000,0.26920,169.15570
8.10000,0.26990,169.54660
8.12000,0.27060,169.99990
8.14000,0.27130,170.43790
8.16000,0.27190,170.85880
8.18000,0.27250,171.22130
8.20000,0.27310,171.57390
8.22000,0.27390,171.93840
8.24000,0.27460,172.36000
8.26000,0.27540,172.85270
8.28000,0.27610,173.34860
8.30000,0.27680,173.81700
8.32000,0.27750,174.21650
8.34000,0.27810,174.61610
8.36000,0.27870,174.98530
8.38000,0.27940,175.35870
8.40000,0.28000,175.75310
8.42000,0.28070,176.11570
8.44000,0.28130,176.46770
8.46000,0.28200,176.83060
8.48000,0.28260,177.25240
8.50000,0.28320,177.63400
8.52000,0.28380,177.93930
8.54000,0.28440,178.26780
8.56000,0.28510,178.66350
8.58000,0.28590,179.05210
8.60000,0.28660,179.44760
8.62000,0.28730,179.88640
8.64000,0.28810,180.33840
8.66000,0.28880,180.75970
8.68000,0.28940,181.18070
8.70000,0.28990,181.56540
8.72000,0.29050,181.88930
8.74000,0.29120,182.20930
8.76000,0.29200,182.61640
8.78000,0.29270,183.04440
8.80000,0.29340,183.48190
8.82000,0.29410,183.93190
8.84000,0.29470,184.35210
8.86000,0.29530,184.69800
8.88000,0.29580,185.00870
8.90000,0.29660,185.38670
8.92000,0.29730,185.80830
8.94000,0.29800,186.22240
8.96000,0.29870,186.65790
8.98000,0.29940,187.08180
9.00000,0.30000,187.47050
9.02000,0.30070,187.85080
9.04000,0.30130,188.23840
9.06000,0.30200,188.62020
9.08000,0.30260,188.97640
9.10000,0.30330,189.33290
9.12000,0.30390,189.72870
9.14000,0.30460,190.09670
9.16000,0.30520,190.47190
9.18000,0.30580,190.84300
9.20000,0.30640,191.18820
9.22000,0.30710,191.50810
9.24000,0.30780,191.87790
9.26000,0.30860,192.34030
9.28000,0.30930,192.81350
9.30000,0.31000,193.23840
9.32000,0.31060,193.64560
9.34000,0.31130,194.07480
9.36000,0.31190,194.46950
9.38000,0.31240,194.80890
9.40000,0.31300,195.11140
9.42000,0.31370,195.41710
9.44000,0.31450,195.79240
9.46000,0.31520,196.25860
9.48000,0.31590,196.72770
9.50000,0.31660,197.18630
9.52000,0.31710,197.58480
9.54000,0.31780,197.90170
9.56000,0.31850,198.23370
9.58000,0.31920,198.64600
9.60000,0.32000,199.08940
9.62000,0.32080,199.52380
9.64000,0.32150,199.96630
9.66000,0.32210,200.38740
9.68000,0.32280,200.78000
9.70000,0.32340,201.15280
9.72000,0.32390,201.52010
9.74000,0.32450,201.87080
9.76000,0.32520,202.21460
9.78000,0.32580,202.56460
9.80000,0.32650,202.95690
9.82000,0.32710,203.36670
9.84000,0.32770,203.79420
9.86000,0.32830,204.08790
9.88000,0.32890,204.29870
9.90000,0.32960,204.69240
9.92000,0.33040,205.20500
9.94000,0.33110,205.63710
9.96000,0.33200,206.00560
9.98000,0.33270,206.42710
10.00000,0.33330,206.85590
10.02000,0.33400,207.30160
10.04000,0.33460,207.70260
10.06000,0.33520,207.99440
10.08000,0.33570,208.25360
10.10000,0.33650,208.58750
10.12000,0.33730,209.01670
10.14000,0.33800,209.49750
10.16000,0.33870,209.99160
10.18000,0.33930,210.34770
10.20000,0.33980,210.62120
10.22000,0.34050,210.95770
10.24000,0.34120,211.33570
10.26000,0.34190,211.73580
10.28000,0.34260,212.20640
10.30000,0.34330,212.67140
10.32000,0.34400,213.06560
10.34000,0.34470,213.47950
10.36000,0.34530,213.89480
10.38000,0.34600,214.28500
10.40000,0.34670,214.66950
10.42000,0.34730,215.04470
10.44000,0.34800,215.40340
10.46000,0.34860,215.78000
10.48000,0.34920,216.17270
10.50000,0.34990,216.56670
10.52000,0.35060,216.94100
10.54000,0.35120,217.29860
10.56000,0.35180,217.63880
10.58000,0.35250,218.00900
10.60000,0.35330,218.41500
10.62000,0.35400,218.84950
10.64000,0.35460,219.26190
10.66000,0.35530,219.65130
10.68000,0.35610,220.05210
10.70000,0.35660,220.44160
10.72000,0.35720,220.79620
10.74000,0.35780,221.11140
10.76000,0.35850,221.41360
10.78000,0.35920,221.81140
10.80000,0.36010,222.29720
10.82000,0.36080,222.76180
10.84000,0.36140,223.20240
10.86000,0.36200,223.59670
10.88000,0.36250,223.90600
10.90000,0.36330,224.18640
10.92000,0.36400,224.56420
10.94000,0.36470,225.03520
10.96000,0.36550,225.48650
10.98000,0.36620,225.92290
11.00000,0.36680,226.35380
11.02000,0.36740,226.75200
11.04000,0.36810,227.11360
11.06000,0.36870,227.45140
11.08000,0.36930,227.76880
11.10000,0.37000,228.13670
11.12000,0.37060,228.52250
11.14000,0.37120,228.92150
11.16000,0.37190,229.28780
11.18000,0.37250,229.63510
11.20000,0.37320,229.98610
11.22000,0.37380,230.33380
11.24000,0.37450,230.69240
11.26000,0.37520,231.08580
11.28000,0.37590,231.48350
11.30000,0.37660,231.90440
11.32000,0.37730,232.29790
11.34000,0.37790,232.65740
11.36000,0.37860,233.04650
11.38000,0.37920,233.45350
11.40000,0.37980,233.81380
11.42000,0.38050,234.14920
11.44000,0.38120,234.49240
11.46000,0.38190,234.92910
11.48000,0.38260,235.37770
11.50000,0.38330,235.82640
11.52000,0.38390,236.25110
11.54000,0.38450,236.60000
11.56000,0.38520,236.91510
11.58000,0.38590,237.28170
11.60000,0.38660,237.68470
11.62000,0.38730,238.11490
11.64000,0.38800,238.53710
11.66000,0.38880,238.92060
11.68000,0.38950,239.31870
11.70000,0.39010,239.74170
11.72000,0.39080,240.14390
11.74000,0.39150,240.50360
11.76000,0.39210,240.84980
11.78000,0.39280,241.23300
11.80000,0.39340,241.61800
11.82000,0.39410,242.01320
11.84000,0.39480,242.36890
11.86000,0.39540,242.72560
11.88000,0.39600,243.08600
11.90000,0.39650,243.45030
11.92000,0.39730,243.80950
11.94000,0.39800,244.16860
11.96000,0.39870,244.54970
11.98000,0.39930,244.93170
12.00000,0.40000,245.31250
12.02000,0.40070,245.71650
12.04000,0.40140,246.12150
12.06000,0.40200,246.46790
12.08000,0.40260,246.79390
12.10000,0.40320,247.15440
12.12000,0.40390,247.56700
12.14000,0.40460,247.95600
12.16000,0.40530,248.28370
12.18000,0.40600,248.67690
12.20000,0.40670,249.10150
12.22000,0.40730,249.52650
12.24000,0.40790,249.89980
12.26000,0.40860,250.22850
12.28000,0.40940,250.58920
12.30000,0.41010,251.00430
12.32000,0.41080,251.47200
12.34000,0.41140,251.92760
12.36000,0.41210,252.32800
12.38000,0.41280,252.67130
12.40000,0.41340,252.98330
12.42000,0.41400,253.36110
12.44000,0.41460,253.74040
12.46000,0.41530,254.08560
12.48000,0.41590,254.41370
12.50000,0.41660,254.77560
12.52000,0.41720,255.14420
12.54000,0.41790,255.53960
12.56000,0.41850,255.95190
12.58000,0.41910,256.28900
12.60000,0.41990,256.62480
12.62000,0.42060,256.99050
12.64000,0.42130,257.41450
12.66000,0.42200,257.87090
12.68000,0.42260,258.31200
12.70000,0.42330,258.67930
12.72000,0.42410,259.02940
12.74000,0.42460,259.39660
12.76000,0.42520,259.74070
12.78000,0.42580,260.06550
12.80000,0.42650,260.40570
12.82000,0.42720,260.77890
12.84000,0.42800,261.17360
12.86000,0.42850,261.57780
12.88000,0.42910,261.93770
12.90000,0.42970,262.29220
12.92000,0.43040,262.59600
12.94000,0.43110,262.93190
12.96000,0.43180,263.34690
12.98000,0.43270,263.79330
13.00000,0.43340,264.24650
13.02000,0.43410,264.71410
13.04000,0.43480,265.14350
13.06000,0.43540,265.54100
13.08000,0.43610,265.89620
13.10000,0.43670,266.21570
13.12000,0.43730,266.56830
13.14000,0.43800,266.93370
13.16000,0.43860,267.27870
13.18000,0.43930,267.64490
13.20000,0.43990,268.00040
13.22000,0.44050,268.36720
13.24000,0.44110,268.72340
13.26000,0.44180,269.03080
13.28000,0.44250,269.37130
13.30000,0.44320,269.76820
13.32000,0.44390,270.18270
13.34000,0.44450,270.59770
13.36000,0.44510,270.98470
13.38000,0.44580,271.32100
13.40000,0.44640,271.67530
13.42000,0.44710,272.03110
13.44000,0.44770,272.36190
13.46000,0.44840,272.70340
13.48000,0.44910,273.08040
13.50000,0.44990,273.52560
13.52000,0.45060,273.97410
13.54000,0.45120,274.39090
13.56000,0.45180,274.75770
13.58000,0.45240,275.06440
13.60000,0.45310,275.40190
13.62000,0.45380,275.75530
13.64000,0.45460,276.14310
13.66000,0.45550,276.59120
13.68000,0.45620,277.07750
13.70000,0.45690,277.54880
13.72000,0.45750,277.96690
13.74000,0.45810,278.30800
13.76000,0.45860,278.60590
13.78000,0.45940,278.90150
13.80000,0.45990,279.23080
13.82000,0.46050,279.57340
13.84000,0.46110,279.92910
13.86000,0.46180,280.26980
13.88000,0.46240,280.62850
13.90000,0.46300,280.97380
13.92000,0.46360,281.30190
13.94000,0.46440,281.63940
13.96000,0.46510,282.00450
13.98000,0.46600,282.42900
14.00000,0.46660,282.87520
14.02000,0.46730,283.28280
14.04000,0.46790,283.67220
14.06000,0.46860,284.02520
14.08000,0.46930,284.38630
14.10000,0.46990,284.73990
14.12000,0.47050,285.08810
14.14000,0.47120,285.45540
14.16000,0.47190,285.81060
14.18000,0.47260,286.16700
14.20000,0.47330,286.60660
14.22000,0.47390,287.03150
14.24000,0.47450,287.40070
14.26000,0.47510,287.70620
14.28000,0.47580,288.01980
14.30000,0.47660,288.36460
14.32000,0.47740,288.79590
14.34000,0.47810,289.29980
14.36000,0.47880,289.79790
14.38000,0.47950,290.25420
14.40000,0.48020,290.59060
14.42000,0.48080,290.96110
14.44000,0.48140,291.39330
14.46000,0.48210,291.72110
14.48000,0.48270,292.01480
14.50000,0.48330,292.35710
14.52000,0.48400,292.71070
14.54000,0.48460,293.05980
14.56000,0.48520,293.39610
14.58000,0.48580,293.76500
14.60000,0.48650,294.08200
14.62000,0.48710,294.41040
14.64000,0.48780,294.77130
14.66000,0.48850,295.17540
14.68000,0.48920,295.55070
14.70000,0.48990,295.92220
14.72000,0.49050,296.31350
14.74000,0.49120,296.72200
14.76000,0.49180,297.08680
14.78000,0.49240,297.41220
14.80000,0.49310,297.73780
14.82000,0.49380,298.08160
14.84000,0.49470,298.49270
14.86000,0.49540,298.99010
14.88000,0.49620,299.48280
14.90000,0.49670,299.91400
14.92000,0.49720,300.23610
14.94000,0.49800,300.54480
14.96000,0.49870,300.91840
14.98000,0.49950,301.36360
15.00000,0.50020,301.78540
15.02000,0.50090,302.20770
15.04000,0.50160,302.60170
15.06000,0.50220,302.98240
15.08000,0.50280,303.37480
15.10000,0.50340,303.70880
15.12000,0.50400,304.01840
15.14000,0.50460,304.30710
15.16000,0.50520,304.59930
15.18000,0.50570,304.92940
15.20000,0.50650,305.30290
15.22000,0.50720,305.69610
15.24000,0.50780,306.07720
15.26000,0.50830,306.42160
15.28000,0.50910,306.73200
15.30000,0.50990,307.09580
15.32000,0.51060,307.56400
