Time,Displacement,Force
(s),(mm),(N)
0.0000,0.0000,0.3682
0.0200,0.0000,0.3706
0.0400,0.0000,0.3933
0.0600,0.0000,0.3992
0.0800,0.0000,0.3753
0.1000,0.0000,0.3991
0.1200,0.0004,0.4189
0.1400,0.0008,0.4870
0.1600,0.0018,0.7626
0.1800,0.0031,1.4032
0.2000,0.0046,2.4136
0.2200,0.0059,3.6239
0.2400,0.0071,4.7756
0.2600,0.0080,5.7837
0.2800,0.0089,6.6327
0.3000,0.0096,7.3220
0.3200,0.0104,7.9110
0.3400,0.0110,8.4682
0.3600,0.0116,8.9693
0.3800,0.0123,9.4277
0.4000,0.0131,9.9416
0.4200,0.0138,10.4789
0.4400,0.0145,11.0194
0.4600,0.0151,11.5555
0.4800,0.0157,12.0354
0.5000,0.0163,12.4480
0.5200,0.0170,12.8569
0.5400,0.0178,13.3490
0.5600,0.0185,13.9247
0.5800,0.0194,14.5157
0.6000,0.0200,15.0946
0.6200,0.0207,15.6060
0.6400,0.0212,16.0856
0.6600,0.0218,16.5399
0.6800,0.0225,17.0070
0.7000,0.0231,17.4714
0.7200,0.0238,17.9024
0.7400,0.0244,18.3636
0.7600,0.0251,18.8544
0.7800,0.0259,19.3447
0.8000,0.0264,19.8604
0.8200,0.0270,20.3375
0.8400,0.0277,20.7917
0.8600,0.0285,21.2752
0.8800,0.0292,21.7902
0.9000,0.0299,22.3142
0.9200,0.0306,22.8304
0.9400,0.0312,23.3293
0.9600,0.0318,23.7845
0.9800,0.0325,24.2148
1.0000,0.0331,24.7053
1.0200,0.0336,25.1748
1.0400,0.0344,25.6070
1.0600,0.0352,26.0923
1.0800,0.0359,26.6299
1.1000,0.0366,27.1868
1.1200,0.0373,27.7296
1.1400,0.0379,28.2414
1.1600,0.0385,28.6894
1.1800,0.0391,29.0976
1.2000,0.0398,29.5164
1.2200,0.0406,30.0361
1.2400,0.0413,30.5660
1.2600,0.0420,31.1283
1.2800,0.0426,31.6505
1.3000,0.0433,32.1102
1.3200,0.0440,32.5642
1.3400,0.0446,33.0246
1.3600,0.0453,33.5023
1.3800,0.0459,33.9623
1.4000,0.0466,34.4299
1.4200,0.0473,34.9288
1.4400,0.0480,35.3983
1.4600,0.0486,35.8797
1.4800,0.0492,36.3427
1.5000,0.0499,36.7580
1.5200,0.0505,37.1672
1.5400,0.0514,37.6290
1.5600,0.0521,38.1467
1.5800,0.0528,38.6772
1.6000,0.0534,39.1795
1.6200,0.0541,39.6596
1.6400,0.0547,40.1252
1.6600,0.0554,40.5479
1.6800,0.0558,41.0031
1.7000,0.0565,41.4258
1.7200,0.0571,41.8461
1.7400,0.0578,42.2755
1.7600,0.0586,42.7428
1.7800,0.0593,43.2710
1.8000,0.0600,43.8039
1.8200,0.0609,44.2740
1.8400,0.0614,44.6794
1.8600,0.0620,45.0351
1.8800,0.0626,45.3658
1.9000,0.0633,45.7765
1.9200,0.0640,46.2528
1.9400,0.0647,46.7854
1.9600,0.0654,47.2986
1.9800,0.0661,47.7759
2.0000,0.0667,48.2528
2.0200,0.0674,48.7347
2.0400,0.0680,49.1853
2.0600,0.0687,49.6283
2.0800,0.0693,50.0643
2.1000,0.0700,50.5079
2.1200,0.0706,50.9643
2.1400,0.0713,51.4305
2.1600,0.0719,51.8911
2.1800,0.0725,52.2892
2.2000,0.0732,52.7080
2.2200,0.0739,53.1878
2.2400,0.0746,53.6714
2.2600,0.0753,54.1642
2.2800,0.0759,54.6295
2.3000,0.0766,55.0828
2.3200,0.0772,55.5378
2.3400,0.0779,56.0062
2.3600,0.0784,56.4629
2.3800,0.0791,56.8758
2.4000,0.0798,57.2919
2.4200,0.0805,57.7446
2.4400,0.0812,58.2276
2.4600,0.0819,58.7394
2.4800,0.0825,59.2337
2.5000,0.0831,59.6956
2.5200,0.0838,60.1042
2.5400,0.0844,60.5138
2.5600,0.0852,60.9802
2.5800,0.0859,61.4947
2.6000,0.0868,62.0376
2.6200,0.0874,62.5483
2.6400,0.0881,63.0433
2.6600,0.0887,63.4934
2.6800,0.0894,63.8992
2.7000,0.0901,64.3178
2.7200,0.0907,64.7755
2.7400,0.0914,65.2242
2.7600,0.0921,65.6689
2.7800,0.0928,66.1484
2.8000,0.0934,66.6266
2.8200,0.0940,67.0709
2.8400,0.0946,67.4818
2.8600,0.0953,67.8657
2.8800,0.0959,68.2900
2.9000,0.0966,68.7615
2.9200,0.0973,69.2202
2.9400,0.0980,69.7023
2.9600,0.0986,70.1639
2.9800,0.0993,70.6185
3.0000,0.0999,71.0493
3.0200,0.1006,71.4706
3.0400,0.1012,71.9198
3.0600,0.1018,72.3209
3.0800,0.1025,72.7400
3.1000,0.1032,73.2055
3.1200,0.1040,73.7101
3.1400,0.1047,74.2203
3.1600,0.1053,74.7270
3.1800,0.1060,75.1912
3.2000,0.1066,75.5988
3.2200,0.1073,76.0108
3.2400,0.1080,76.4632
3.2600,0.1088,76.9632
3.2800,0.1094,77.4820
3.3000,0.1101,77.9697
3.3200,0.1107,78.4044
3.3400,0.1113,78.8032
3.3600,0.1119,79.1943
3.3800,0.1126,79.5947
3.4000,0.1133,80.0039
3.4200,0.1140,80.4563
3.4400,0.1146,80.9119
3.4600,0.1153,81.3607
3.4800,0.1159,81.8341
3.5000,0.1166,82.2556
3.5200,0.1171,82.6623
3.5400,0.1178,83.0364
3.5600,0.1184,83.4270
3.5800,0.1191,83.8657
3.6000,0.1198,84.3286
3.6200,0.1205,84.7751
3.6400,0.1212,85.2361
3.6600,0.1218,85.6948
3.6800,0.1225,86.1383
3.7000,0.1231,86.5895
3.7200,0.1237,87.0292
3.7400,0.1244,87.4330
3.7600,0.1251,87.8413
3.7800,0.1258,88.2940
3.8000,0.1266,88.7737
3.8200,0.1274,89.2938
3.8400,0.1280,89.7944
3.8600,0.1286,90.2423
3.8800,0.1292,90.6180
3.9000,0.1299,91.0109
3.9200,0.1306,91.4008
3.9400,0.1313,91.8614
3.9600,0.1320,92.3730
3.9800,0.1326,92.8482
4.0000,0.1333,93.2833
4.0200,0.1339,93.6957
4.0400,0.1346,94.0783
4.0600,0.1352,94.5220
4.0800,0.1359,94.9927
4.1000,0.1365,95.4373
4.1200,0.1372,95.8388
4.1400,0.1378,96.2425
4.1600,0.1385,96.6573
4.1800,0.1391,97.0708
4.2000,0.1397,97.5241
4.2200,0.1404,97.9293
4.2400,0.1411,98.2907
4.2600,0.1418,98.7124
4.2800,0.1425,99.2102
4.3000,0.1432,99.7338
4.3200,0.1438,100.2192
4.3400,0.1445,100.6353
4.3600,0.1451,100.9868
4.3800,0.1457,101.3717
4.4000,0.1463,101.7867
4.4200,0.1470,102.1835
4.4400,0.1477,102.5738
4.4600,0.1485,103.0218
4.4800,0.1492,103.5100
4.5000,0.1499,103.9919
4.5200,0.1505,104.4767
4.5400,0.1511,104.9264
4.5600,0.1518,105.2930
4.5800,0.1525,105.6572
4.6000,0.1532,106.1198
4.6200,0.1539,106.5954
4.6400,0.1547,107.0648
4.6600,0.1554,107.5373
4.6800,0.1560,107.9383
4.7000,0.1567,108.3296
4.7200,0.1572,108.7355
4.7400,0.1578,109.1447
4.7600,0.1585,109.5622
4.7800,0.1591,109.9716
4.8000,0.1598,110.3893
4.8200,0.1604,110.7999
4.8400,0.1611,111.2087
4.8600,0.1617,111.6174
4.8800,0.1624,112.0010
4.9000,0.1632,112.4052
4.9200,0.1639,112.8190
4.9400,0.1646,113.2752
4.9600,0.1653,113.7655
4.9800,0.1660,114.2303
5.0000,0.1667,114.6446
5.0200,0.1673,115.0392
5.0400,0.1680,115.4332
5.0600,0.1687,115.8406
5.0800,0.1693,116.2589
5.1000,0.1700,116.6596
5.1200,0.1707,117.0592
5.1400,0.1714,117.4479
5.1600,0.1720,117.8482
5.1800,0.1727,118.2686
5.2000,0.1733,118.6749
5.2200,0.1739,119.0241
5.2400,0.1746,119.3459
5.2600,0.1753,119.6842
5.2800,0.1761,120.0610
5.3000,0.1768,120.4893
5.3200,0.1774,120.9173
5.3400,0.1780,121.2718
5.3600,0.1786,121.6085
5.3800,0.1793,121.9869
5.4000,0.1800,122.4156
5.4200,0.1806,122.8351
5.4400,0.1813,123.2637
5.4600,0.1820,123.7018
5.4800,0.1826,124.1274
5.5000,0.1833,124.5816
5.5200,0.1840,125.0086
5.5400,0.1846,125.4261
5.5600,0.1852,125.8146
5.5800,0.1858,126.1797
5.6000,0.1865,126.5617
5.6200,0.1872,127.0123
5.6400,0.1879,127.4983
5.6600,0.1887,127.9685
5.6800,0.1894,128.3876
5.7000,0.1901,128.8246
5.7200,0.1907,129.2682
5.7400,0.1912,129.7079
5.7600,0.1918,130.0993
5.7800,0.1925,130.4669
5.8000,0.1933,130.8791
5.8200,0.1940,131.3428
5.8400,0.1947,131.7859
5.8600,0.1953,132.2429
5.8800,0.1959,132.6860
5.9000,0.1964,133.0792
5.9200,0.1973,133.4565
5.9400,0.1980,133.8878
5.9600,0.1987,134.3572
5.9800,0.1994,134.8533
6.0000,0.2001,135.3335
6.0200,0.2007,135.7944
6.0400,0.2014,136.2241
6.0600,0.2020,136.6367
6.0800,0.2027,137.0493
6.1000,0.2034,137.4598
6.1200,0.2040,137.8534
6.1400,0.2047,138.2356
6.1600,0.2053,138.6830
6.1800,0.2060,139.1327
6.2000,0.2066,139.5444
6.2200,0.2073,139.9496
6.2400,0.2079,140.3591
6.2600,0.2086,140.7518
6.2800,0.2093,141.1772
6.3000,0.2101,141.6538
6.3200,0.2107,142.1399
6.3400,0.2114,142.5786
6.3600,0.2120,142.9850
6.3800,0.2126,143.3818
6.4000,0.2133,143.7817
6.4200,0.2138,144.1891
6.4400,0.2145,144.5351
6.4600,0.2151,144.8770
6.4800,0.2158,145.2822
6.5000,0.2165,145.7503
6.5200,0.2172,146.2300
6.5400,0.2178,146.6809
6.5600,0.2185,147.0775
6.5800,0.2191,147.4490
6.6000,0.2199,147.8751
6.6200,0.2206,148.3365
6.6400,0.2214,148.8481
6.6600,0.2221,149.3438
6.6800,0.2228,149.8054
6.7000,0.2234,150.2217
6.7200,0.2241,150.6250
6.7400,0.2247,151.0300
6.7600,0.2254,151.4248
6.7800,0.2261,151.8560
6.8000,0.2267,152.3024
6.8200,0.2274,152.7190
6.8400,0.2280,153.1345
6.8600,0.2287,153.5342
6.8800,0.2293,153.9254
6.9000,0.2299,154.3069
6.9200,0.2306,154.6825
6.9400,0.2313,155.0957
6.9600,0.2320,155.5596
6.9800,0.2327,156.0308
7.0000,0.2334,156.5032
7.0200,0.2340,156.9206
7.0400,0.2347,157.2915
7.0600,0.2353,157.6974
7.0800,0.2359,158.1261
7.1000,0.2365,158.5481
7.1200,0.2372,158.9185
7.1400,0.2378,159.2917
7.1600,0.2385,159.6832
7.1800,0.2392,160.1018
7.2000,0.2399,160.5464
7.2200,0.2405,161.0113
7.2400,0.2412,161.4295
7.2600,0.2419,161.8303
7.2800,0.2426,162.2598
7.3000,0.2433,162.7601
7.3200,0.2440,163.2621
7.3400,0.2447,163.6931
7.3600,0.2453,164.0843
7.3800,0.2460,164.4699
7.4000,0.2466,164.8795
7.4200,0.2473,165.2838
7.4400,0.2479,165.6979
7.4600,0.2486,166.0972
7.4800,0.2492,166.5040
7.5000,0.2498,166.9091
7.5200,0.2505,167.2999
7.5400,0.2511,167.6914
7.5600,0.2518,168.0619
7.5800,0.2525,168.4744
7.6000,0.2532,168.9235
7.6200,0.2539,169.4013
7.6400,0.2546,169.8822
7.6600,0.2554,170.3629
7.6800,0.2559,170.8005
7.7000,0.2567,171.2015
7.7200,0.2572,171.5754
7.7400,0.2580,171.9843
7.7600,0.2584,172.3983
7.7800,0.2590,172.7898
7.8000,0.2597,173.1313
7.8200,0.2604,173.5236
7.8400,0.2611,173.9731
7.8600,0.2618,174.4449
7.8800,0.2626,174.9229
7.9000,0.2631,175.3644
7.9200,0.2637,175.7334
7.9400,0.2644,176.0904
7.9600,0.2653,176.5272
7.9800,0.2660,177.0027
8.0000,0.2666,177.4525
8.0200,0.2673,177.8723
8.0400,0.2679,178.2736
8.0600,0.2685,178.6602
8.0800,0.2692,179.0146
8.1000,0.2698,179.4149
8.1200,0.2705,179.8228
8.1400,0.2712,180.2564
8.1600,0.2718,180.6995
8.1800,0.2725,181.1088
8.2000,0.2731,181.5071
8.2200,0.2738,181.9037
8.2400,0.2745,182.3091
8.2600,0.2752,182.7448
8.2800,0.2759,183.1809
8.3000,0.2766,183.6608
8.3200,0.2772,184.0987
8.3400,0.2779,184.5069
8.3600,0.2785,184.9062
8.3800,0.2791,185.2996
8.4000,0.2798,185.6916
8.4200,0.2804,186.0615
8.4400,0.2811,186.4242
8.4600,0.2817,186.8176
8.4800,0.2824,187.2486
8.5000,0.2832,187.7139
8.5200,0.2839,188.1872
8.5400,0.2846,188.6360
8.5600,0.2852,189.0595
8.5800,0.2858,189.4915
8.6000,0.2865,189.8648
8.6200,0.2871,190.2384
8.6400,0.2879,190.6355
8.6600,0.2886,191.1041
8.6800,0.2894,191.6006
8.7000,0.2901,192.0887
8.7200,0.2907,192.5245
8.7400,0.2914,192.9137
8.7600,0.2921,193.3174
8.7800,0.2927,193.6942
8.8000,0.2934,194.0996
8.8200,0.2940,194.5290
8.8400,0.2947,194.9383
8.8600,0.2953,195.3426
8.8800,0.2960,195.7536
8.9000,0.2967,196.1493
8.9200,0.2973,196.5314
8.9400,0.2980,196.9392
8.9600,0.2987,197.3546
8.9800,0.2994,197.7625
9.0000,0.3001,198.2073
9.0200,0.3007,198.6790
9.0400,0.3013,199.1120
9.0600,0.3019,199.4754
9.0800,0.3026,199.8396
9.1000,0.3033,200.2111
9.1200,0.3039,200.5950
9.1400,0.3045,200.9828
9.1600,0.3052,201.3833
9.1800,0.3059,201.8058
9.2000,0.3066,202.2223
9.2200,0.3073,202.6684
9.2400,0.3079,203.1300
9.2600,0.3085,203.5627
9.2800,0.3092,203.9386
9.3000,0.3099,204.3368
9.3200,0.3107,204.7647
9.3400,0.3114,205.2364
9.3600,0.3121,205.7204
9.3800,0.3127,206.2080
9.4000,0.3134,206.6264
9.4200,0.3140,206.9971
9.4400,0.3147,207.3715
9.4600,0.3153,207.7744
9.4800,0.3160,208.1729
9.5000,0.3166,208.5648
9.5200,0.3173,208.9477
9.5400,0.3180,209.3440
9.5600,0.3186,209.7559
9.5800,0.3192,210.1843
9.6000,0.3199,210.5824
9.6200,0.3206,211.0141
9.6400,0.3213,211.4375
9.6600,0.3221,211.8774
9.6800,0.3228,212.3240
9.7000,0.3234,212.7477
9.7200,0.3241,213.1623
9.7400,0.3247,213.5588
9.7600,0.3254,213.9433
9.7800,0.3260,214.3254
9.8000,0.3265,214.6850
9.8200,0.3271,215.0550
9.8400,0.3278,215.4460
9.8600,0.3285,215.8724
9.8800,0.3293,216.2880
9.9000,0.3300,216.7025
9.9200,0.3304,217.1155
9.9400,0.3310,217.4863
9.9600,0.3317,217.8156
9.9800,0.3326,218.1962
10.0000,0.3333,218.6639
10.0200,0.3341,219.2005
10.0400,0.3348,219.7077
10.0600,0.3354,220.1705
10.0800,0.3361,220.5477
10.1000,0.3367,220.9191
10.1200,0.3374,221.3031
10.1400,0.3380,221.7122
10.1600,0.3387,222.1168
10.1800,0.3394,222.5254
10.2000,0.3400,222.9271
10.2200,0.3407,223.3245
10.2400,0.3413,223.7131
10.2600,0.3420,224.1202
10.2800,0.3427,224.5215
10.3000,0.3434,224.9334
10.3200,0.3441,225.3708
10.3400,0.3448,225.8210
10.3600,0.3454,226.2596
10.3800,0.3461,226.6840
10.4000,0.3467,227.0691
10.4200,0.3473,227.4140
10.4400,0.3479,227.7674
10.4600,0.3485,228.1258
10.4800,0.3491,228.4685
10.5000,0.3497,228.7980
10.5200,0.3504,229.1796
10.5400,0.3512,229.6339
10.5600,0.3519,230.0914
10.5800,0.3525,230.5305
10.6000,0.3531,230.9429
10.6200,0.3537,231.3156
10.6400,0.3544,231.6561
10.6600,0.3552,232.0341
10.6800,0.3559,232.4970
10.7000,0.3568,232.9934
10.7200,0.3575,233.5161
10.7400,0.3582,233.9767
10.7600,0.3588,234.4122
10.7800,0.3595,234.8263
10.8000,0.3601,235.2057
10.8200,0.3608,235.5689
10.8400,0.3614,235.9507
10.8600,0.3620,236.3278
10.8800,0.3627,236.6806
10.9000,0.3633,237.0708
10.9200,0.3640,237.4592
10.9400,0.3646,237.8472
10.9600,0.3653,238.2601
10.9800,0.3660,238.6694
11.0000,0.3667,239.0811
11.0200,0.3674,239.5081
11.0400,0.3680,239.9672
11.0600,0.3687,240.3842
11.0800,0.3693,240.7529
11.1000,0.3699,241.1208
11.1200,0.3706,241.4864
11.1400,0.3710,241.8530
11.1600,0.3716,242.1939
11.1800,0.3723,242.5220
11.2000,0.3731,242.9024
11.2200,0.3738,243.3277
11.2400,0.3745,243.7695
11.2600,0.3752,244.2264
11.2800,0.3758,244.6647
11.3000,0.3764,245.0163
11.3200,0.3771,245.3510
11.3400,0.3779,245.7572
11.3600,0.3786,246.2184
11.3800,0.3793,246.7209
11.4000,0.3800,247.2294
11.4200,0.3807,247.6449
11.4400,0.3813,248.0291
11.4600,0.3820,248.4263
11.4800,0.3827,248.8471
11.5000,0.3833,249.2800
11.5200,0.3840,249.6801
11.5400,0.3846,250.0363
11.5600,0.3852,250.4027
11.5800,0.3859,250.7884
11.6000,0.3865,251.1838
11.6200,0.3872,251.5658
11.6400,0.3879,251.9721
11.6600,0.3886,252.3742
11.6800,0.3893,252.8034
11.7000,0.3899,253.2204
11.7200,0.3906,253.6355
11.7400,0.3912,254.0373
11.7600,0.3918,254.4104
11.7800,0.3925,254.7713
11.8000,0.3931,255.1291
11.8200,0.3937,255.4861
11.8400,0.3943,255.8075
11.8600,0.3949,256.1270
11.8800,0.3957,256.5261
11.9000,0.3964,256.9973
11.9200,0.3971,257.4593
11.9400,0.3978,257.9106
11.9600,0.3984,258.3195
11.9800,0.3990,258.6810
12.0000,0.3999,259.0335
12.0200,0.4006,259.4748
12.0400,0.4014,259.9784
12.0600,0.4021,260.4762
12.0800,0.4028,260.9364
12.1000,0.4035,261.3585
12.1200,0.4041,261.7823
12.1400,0.4047,262.1603
12.1600,0.4054,262.5275
12.1800,0.4060,262.9096
12.2000,0.4067,263.2894
12.2200,0.4073,263.6657
12.2400,0.4080,264.0470
12.2600,0.4086,264.4666
12.2800,0.4093,264.8755
12.3000,0.4100,265.2750
12.3200,0.4107,265.6959
12.3400,0.4114,266.1035
12.3600,0.4121,266.5258
12.3800,0.4127,266.9629
12.4000,0.4134,267.3750
12.4200,0.4140,267.7580
12.4400,0.4146,268.1083
12.4600,0.4153,268.4724
12.4800,0.4158,268.8362
12.5000,0.4164,269.1471
12.5200,0.4171,269.4704
12.5400,0.4178,269.8515
12.5600,0.4185,270.2820
12.5800,0.4192,270.7452
12.6000,0.4199,271.1813
12.6200,0.4206,271.6221
12.6400,0.4212,272.0330
12.6600,0.4219,272.4250
12.6800,0.4226,272.8155
12.7000,0.4233,273.2571
12.7200,0.4241,273.7264
12.7400,0.4248,274.1853
12.7600,0.4255,274.5846
12.7800,0.4261,274.9734
12.8000,0.4268,275.3456
12.8200,0.4274,275.7224
12.8400,0.4281,276.0986
12.8600,0.4288,276.5136
12.8800,0.4294,276.9085
12.9000,0.4301,277.2875
12.9200,0.4307,277.6928
12.9400,0.4314,278.0831
12.9600,0.4321,278.4674
12.9800,0.4327,278.8582
13.0000,0.4334,279.2850
13.0200,0.4341,279.6958
13.0400,0.4348,280.1182
13.0600,0.4355,280.5388
13.0800,0.4361,280.9645
13.1000,0.4367,281.3246
13.1200,0.4373,281.6644
13.1400,0.4380,282.0254
13.1600,0.4385,282.3845
13.1800,0.4390,282.7186
13.2000,0.4398,283.0569
13.2200,0.4405,283.4324
13.2400,0.4412,283.8682
13.2600,0.4419,284.3085
13.2800,0.4426,284.7386
13.3000,0.4432,285.1633
13.3200,0.4438,285.5305
13.3400,0.4445,285.8653
13.3600,0.4452,286.2556
13.3800,0.4460,286.7254
13.4000,0.4468,287.2115
13.4200,0.4475,287.6865
13.4400,0.4483,288.1341
13.4600,0.4488,288.5494
13.4800,0.4496,288.9687
13.5000,0.4501,289.3553
13.5200,0.4507,289.7295
13.5400,0.4513,290.0887
13.5600,0.4520,290.4305
13.5800,0.4527,290.7993
13.6000,0.4533,291.1999
13.6200,0.4539,291.5755
13.6400,0.4546,291.9442
13.6600,0.4552,292.3236
13.6800,0.4559,292.7122
13.7000,0.4566,293.1307
13.7200,0.4573,293.5822
13.7400,0.4581,293.9835
13.7600,0.4586,294.3669
13.7800,0.4594,294.7535
13.8000,0.4599,295.1459
13.8200,0.4607,295.5537
13.8400,0.4612,295.9533
13.8600,0.4618,296.2668
13.8800,0.4624,296.6006
13.9000,0.4632,296.9751
13.9200,0.4640,297.3961
13.9400,0.4647,297.8635
13.9600,0.4653,298.2990
13.9800,0.4658,298.6472
14.0000,0.4664,298.9492
14.0200,0.4671,299.2858
14.0400,0.4679,299.7207
14.0600,0.4687,300.1838
14.0800,0.4694,300.6632
14.1000,0.4701,301.0846
14.1200,0.4708,301.4906
14.1400,0.4714,301.9174
14.1600,0.4721,302.3401
14.1800,0.4727,302.7593
14.2000,0.4734,303.1348
14.2200,0.4740,303.4790
14.2400,0.4747,303.8238
14.2600,0.4753,304.2174
14.2800,0.4759,304.6047
14.3000,0.4766,304.9910
14.3200,0.4773,305.3625
14.3400,0.4779,305.7409
14.3600,0.4786,306.1415
14.3800,0.4793,306.5440
14.4000,0.4800,306.9410
14.4200,0.4806,307.3419
14.4400,0.4812,307.7493
14.4600,0.4818,308.0978
14.4800,0.4824,308.4131
14.5000,0.4830,308.7465
14.5200,0.4837,309.1115
14.5400,0.4844,309.4743
14.5600,0.4851,309.8719
14.5800,0.4859,310.3438
14.6000,0.4866,310.8252
14.6200,0.4872,311.2798
14.6400,0.4878,311.6704
14.6600,0.4884,312.0115
14.6800,0.4891,312.3505
14.7000,0.4899,312.7475
14.7200,0.4906,313.1971
14.7400,0.4913,313.6772
14.7600,0.4921,314.1175
14.7800,0.4928,314.5430
14.8000,0.4934,314.9434
14.8200,0.4941,315.3336
14.8400,0.4948,315.7043
14.8600,0.4954,316.0821
14.8800,0.4961,316.4754
14.9000,0.4968,316.8724
14.9200,0.4974,317.2668
14.9400,0.4981,317.6696
14.9600,0.4987,318.0540
14.9800,0.4993,318.4078
15.0000,0.4998,318.7300
15.0200,0.5006,319.0622
15.0400,0.5011,319.4385
15.0600,0.5019,319.8488
15.0800,0.5026,320.2344
15.1000,0.5032,320.6342
15.1200,0.5037,321.0260
15.1400,0.5045,321.3526
15.1600,0.5052,321.7436
15.1800,0.5057,322.1252
15.2000,0.5065,322.4707
15.2200,0.5070,322.8349
15.2400,0.5079,323.2465
15.2600,0.5086,323.7007
15.2800,0.5093,324.1780
15.3000,0.5100,324.5933
15.3200,0.5105,324.9528
15.3400,0.5112,325.3040
15.3600,0.5118,325.6767
15.3800,0.5126,326.0749
15.4000,0.5133,326.4936
15.4200,0.5140,326.9604
15.4400,0.5147,327.3943
15.4600,0.5153,327.7843
15.4800,0.5160,328.1875
15.5000,0.5167,328.6071
15.5200,0.5174,329.0013
15.5400,0.5180,329.3689
15.5600,0.5187,329.7384
15.5800,0.5193,330.1217
15.6000,0.5200,330.5226
15.6200,0.5206,330.8848
15.6400,0.5212,331.2350
15.6600,0.5218,331.5739
15.6800,0.5224,331.9077
15.7000,0.5232,332.2836
15.7200,0.5239,332.7014
15.7400,0.5246,333.1408
15.7600,0.5253,333.5789
15.7800,0.5261,333.9818
15.8000,0.5266,334.3530
15.8200,0.5274,334.7441
15.8400,0.5279,335.1492
15.8600,0.5287,335.5157
15.8800,0.5292,335.8438
15.9000,0.5298,336.1970
15.9200,0.5305,336.5696
15.9400,0.5312,336.9546
15.9600,0.5320,337.3708
15.9800,0.5325,337.7737
16.0000,0.5331,338.1428
16.0200,0.5338,338.4969
16.0400,0.5346,338.8781
16.0600,0.5353,339.3060
16.0800,0.5361,339.7887
16.1000,0.5368,340.2611
16.1200,0.5374,340.6773
16.1400,0.5381,341.0613
16.1600,0.5388,341.4385
16.1800,0.5394,341.8273
16.2000,0.5400,342.1982
16.2200,0.5407,342.5649
16.2400,0.5414,342.9256
16.2600,0.5420,343.3047
16.2800,0.5427,343.6788
16.3000,0.5433,344.0714
16.3200,0.5439,344.4361
16.3400,0.5445,344.7661
16.3600,0.5452,345.0890
16.3800,0.5459,345.4736
16.4000,0.5466,345.8890
16.4200,0.5473,346.3006
16.4400,0.5480,346.7289
16.4600,0.5486,347.1256
16.4800,0.5493,347.5108
16.5000,0.5500,347.9183
16.5200,0.5506,348.2977
16.5400,0.5512,348.6368
16.5600,0.5518,348.9504
16.5800,0.5525,349.3080
16.6000,0.5532,349.7242
16.6200,0.5539,350.1779
16.6400,0.5546,350.5967
16.6600,0.5552,350.9881
16.6800,0.5559,351.3445
16.7000,0.5565,351.7171
16.7200,0.5572,352.0862
16.7400,0.5579,352.4807
16.7600,0.5588,352.9225
16.7800,0.5593,353.3603
16.8000,0.5601,353.7822
16.8200,0.5608,354.1611
16.8400,0.5615,354.5626
16.8600,0.5621,354.9597
16.8800,0.5627,355.3509
16.9000,0.5634,355.7305
16.9200,0.5641,356.0604
16.9400,0.5648,356.4241
16.9600,0.5654,356.8278
16.9800,0.5661,357.2313
17.0000,0.5665,357.6189
17.0200,0.5673,357.9278
17.0400,0.5678,358.2358
17.0600,0.5686,358.6077
17.0800,0.5693,359.0083
17.1000,0.5700,359.4157
17.1200,0.5707,359.8261
17.1400,0.5713,360.2357
17.1600,0.5720,360.6273
17.1800,0.5726,360.9973
17.2000,0.5732,361.3768
17.2200,0.5737,361.7109
